Index,Time,Position1 - m,Load1 - kg,PauseCycle,Mark1,Mark2,Motion,Upper Limit,Lower Limit,Emergency Stop,force
0,0,-0.000003,0.077798,0,0,0,0,0,0,0,0.7624204
1,124,0.000117,0.233395,0,0,0,1,0,0,0,2.287271
2,172,0.000376,1.182532,0,0,0,1,0,0,0,11.5888136
3,203,0.000682,2.769615,0,0,0,1,0,0,0,27.142227
4,234,0.000964,4.201101,0,0,0,1,0,0,0,41.1707898
5,265,0.001239,5.274716,0,0,0,1,0,0,0,51.6922168
6,296,0.001518,6.052698,0,0,0,1,0,0,0,59.3164404
7,343,0.001798,6.535047,0,0,0,1,0,0,0,64.0434606
8,375,0.002077,6.784001,0,0,0,1,0,0,0,66.4832098
9,406,0.002356,6.830679,0,0,0,1,0,0,0,66.9406542
10,437,0.002635,6.784001,0,0,0,1,0,0,0,66.4832098
11,468,0.002914,6.675083,0,0,0,1,0,0,0,65.4158134
12,501,0.003193,6.535047,0,0,0,1,0,0,0,64.0434606
13,532,0.003471,6.39501,0,0,0,1,0,0,0,62.671098
14,563,0.00375,6.239413,0,0,0,1,0,0,0,61.1462474
15,595,0.004029,6.099377,0,0,0,1,0,0,0,59.7738946
16,626,0.004308,5.94378,0,0,0,1,0,0,0,58.249044
17,657,0.004586,5.788184,0,0,0,1,0,0,0,56.7242032
18,689,0.004866,5.55479,0,0,0,1,0,0,0,54.436942
19,721,0.005144,5.165799,0,0,0,1,0,0,0,50.6248302
20,752,0.005424,4.792367,0,0,0,1,0,0,0,46.9651966
21,784,0.005702,4.325578,0,0,0,1,0,0,0,42.3906644
22,818,0.005981,3.376441,0,0,0,1,0,0,0,33.0891218
23,865,0.00626,3.42312,0,0,0,1,0,0,0,33.546576
24,896,0.006539,3.594275,0,0,0,1,0,0,0,35.223895
25,927,0.006818,3.625395,0,0,0,1,0,0,0,35.528871
26,958,0.007097,3.532037,0,0,0,1,0,0,0,34.6139626
27,990,0.007376,3.485358,0,0,0,1,0,0,0,34.1565084
28,1022,0.007654,3.500918,0,0,0,1,0,0,0,34.3089964
29,1053,0.007934,3.500918,0,0,0,1,0,0,0,34.3089964
30,1085,0.008212,3.500918,0,0,0,1,0,0,0,34.3089964
31,1131,0.008491,3.500918,0,0,0,1,0,0,0,34.3089964
32,1163,0.008769,3.500918,0,0,0,1,0,0,0,34.3089964
33,1194,0.009049,3.500918,0,0,0,1,0,0,0,34.3089964
34,1241,0.009327,3.485358,0,0,0,1,0,0,0,34.1565084
35,1272,0.009607,3.469799,0,0,0,1,0,0,0,34.0040302
36,1303,0.009885,3.469799,0,0,0,1,0,0,0,34.0040302
37,1334,0.010164,3.454239,0,0,0,1,0,0,0,33.8515422
38,1366,0.010443,3.454239,0,0,0,1,0,0,0,33.8515422
39,1397,0.010722,3.454239,0,0,0,1,0,0,0,33.8515422
40,1428,0.011001,3.454239,0,0,0,1,0,0,0,33.8515422
41,1460,0.01128,3.469799,0,0,0,1,0,0,0,34.0040302
42,1491,0.011559,3.469799,0,0,0,1,0,0,0,34.0040302
43,1522,0.011838,3.469799,0,0,0,1,0,0,0,34.0040302
44,1553,0.012117,3.469799,0,0,0,1,0,0,0,34.0040302
45,1585,0.012395,3.485358,0,0,0,1,0,0,0,34.1565084
46,1631,0.012675,3.485358,0,0,0,1,0,0,0,34.1565084
47,1662,0.012953,3.500918,0,0,0,1,0,0,0,34.3089964
48,1694,0.013232,3.516477,0,0,0,1,0,0,0,34.4614746
49,1725,0.013511,3.516477,0,0,0,1,0,0,0,34.4614746
50,1772,0.01379,3.532037,0,0,0,1,0,0,0,34.6139626
51,1803,0.014068,3.532037,0,0,0,1,0,0,0,34.6139626
52,1834,0.014347,3.547597,0,0,0,1,0,0,0,34.7664506
53,1867,0.014626,3.547597,0,0,0,1,0,0,0,34.7664506
54,1899,0.014905,3.563156,0,0,0,1,0,0,0,34.9189288
55,1930,0.015184,3.563156,0,0,0,1,0,0,0,34.9189288
56,1961,0.015463,3.563156,0,0,0,1,0,0,0,34.9189288
57,1992,0.015742,3.563156,0,0,0,1,0,0,0,34.9189288
58,2024,0.016021,3.563156,0,0,0,1,0,0,0,34.9189288
59,2055,0.0163,3.578716,0,0,0,1,0,0,0,35.0714168
60,2088,0.016579,3.563156,0,0,0,1,0,0,0,34.9189288
61,2134,0.016857,3.563156,0,0,0,1,0,0,0,34.9189288
62,2166,0.017136,3.563156,0,0,0,1,0,0,0,34.9189288
63,2198,0.017415,3.563156,0,0,0,1,0,0,0,34.9189288
64,2229,0.017694,3.563156,0,0,0,1,0,0,0,34.9189288
65,2261,0.017973,3.563156,0,0,0,1,0,0,0,34.9189288
66,2292,0.018251,3.547597,0,0,0,1,0,0,0,34.7664506
67,2323,0.01853,3.547597,0,0,0,1,0,0,0,34.7664506
68,2354,0.018809,3.547597,0,0,0,1,0,0,0,34.7664506
69,2387,0.019088,3.547597,0,0,0,1,0,0,0,34.7664506
70,2418,0.019367,3.547597,0,0,0,1,0,0,0,34.7664506
71,2449,0.019646,3.563156,0,0,0,1,0,0,0,34.9189288
72,2496,0.019925,3.563156,0,0,0,1,0,0,0,34.9189288
73,2543,0.020204,3.578716,0,0,0,1,0,0,0,35.0714168
74,2574,0.020482,3.609835,0,0,0,1,0,0,0,35.376383
75,2606,0.020762,3.640954,0,0,0,1,0,0,0,35.6813492
76,2637,0.021041,3.656514,0,0,0,1,0,0,0,35.8338372
77,2668,0.021319,3.672074,0,0,0,1,0,0,0,35.9863252
78,2699,0.021598,3.672074,0,0,0,1,0,0,0,35.9863252
79,2731,0.021877,3.672074,0,0,0,1,0,0,0,35.9863252
80,2762,0.022156,3.656514,0,0,0,1,0,0,0,35.8338372
81,2793,0.022434,3.640954,0,0,0,1,0,0,0,35.6813492
82,2824,0.022714,3.640954,0,0,0,1,0,0,0,35.6813492
83,2856,0.022992,3.625395,0,0,0,1,0,0,0,35.528871
84,2887,0.023271,3.609835,0,0,0,1,0,0,0,35.376383
85,2934,0.02355,3.625395,0,0,0,1,0,0,0,35.528871
86,2965,0.023829,3.609835,0,0,0,1,0,0,0,35.376383
87,2996,0.024108,3.609835,0,0,0,1,0,0,0,35.376383
88,3027,0.024387,3.594275,0,0,0,1,0,0,0,35.223895
89,3059,0.024666,3.578716,0,0,0,1,0,0,0,35.0714168
90,3090,0.024944,3.563156,0,0,0,1,0,0,0,34.9189288
91,3121,0.025224,3.563156,0,0,0,1,0,0,0,34.9189288
92,3168,0.025502,3.547597,0,0,0,1,0,0,0,34.7664506
93,3199,0.025781,3.547597,0,0,0,1,0,0,0,34.7664506
94,3232,0.02606,3.532037,0,0,0,1,0,0,0,34.6139626
95,3263,0.026339,3.547597,0,0,0,1,0,0,0,34.7664506
96,3294,0.026618,3.547597,0,0,0,1,0,0,0,34.7664506
97,3341,0.026897,3.563156,0,0,0,1,0,0,0,34.9189288
98,3373,0.027175,3.563156,0,0,0,1,0,0,0,34.9189288
99,3404,0.027454,3.547597,0,0,0,1,0,0,0,34.7664506
100,3436,0.027733,3.547597,0,0,0,1,0,0,0,34.7664506
101,3467,0.028012,3.547597,0,0,0,1,0,0,0,34.7664506
102,3499,0.028291,3.532037,0,0,0,1,0,0,0,34.6139626
103,3530,0.02857,3.547597,0,0,0,1,0,0,0,34.7664506
104,3561,0.028849,3.547597,0,0,0,1,0,0,0,34.7664506
105,3592,0.029128,3.563156,0,0,0,1,0,0,0,34.9189288
106,3624,0.029407,3.547597,0,0,0,1,0,0,0,34.7664506
107,3655,0.029685,3.547597,0,0,0,1,0,0,0,34.7664506
108,3702,0.029964,3.547597,0,0,0,1,0,0,0,34.7664506
109,3733,0.030243,3.547597,0,0,0,1,0,0,0,34.7664506
110,3764,0.030522,3.563156,0,0,0,1,0,0,0,34.9189288
111,3795,0.0308,3.578716,0,0,0,1,0,0,0,35.0714168
112,3827,0.031079,3.578716,0,0,0,1,0,0,0,35.0714168
113,3858,0.031357,3.563156,0,0,0,1,0,0,0,34.9189288
114,3889,0.031637,3.578716,0,0,0,1,0,0,0,35.0714168
115,3920,0.031916,3.578716,0,0,0,1,0,0,0,35.0714168
116,3967,0.032195,3.609835,0,0,0,1,0,0,0,35.376383
117,3999,0.032473,3.609835,0,0,0,1,0,0,0,35.376383
118,4030,0.032752,3.609835,0,0,0,1,0,0,0,35.376383
119,4061,0.033031,3.594275,0,0,0,1,0,0,0,35.223895
120,4108,0.033311,3.594275,0,0,0,1,0,0,0,35.223895
121,4139,0.03359,3.594275,0,0,0,1,0,0,0,35.223895
122,4170,0.033868,3.594275,0,0,0,1,0,0,0,35.223895
123,4202,0.034146,3.594275,0,0,0,1,0,0,0,35.223895
124,4233,0.034425,3.594275,0,0,0,1,0,0,0,35.223895
125,4264,0.034704,3.594275,0,0,0,1,0,0,0,35.223895
126,4295,0.034983,3.594275,0,0,0,1,0,0,0,35.223895
127,4327,0.035262,3.594275,0,0,0,1,0,0,0,35.223895
128,4358,0.035541,3.578716,0,0,0,1,0,0,0,35.0714168
129,4389,0.03582,3.578716,0,0,0,1,0,0,0,35.0714168
130,4420,0.036099,3.563156,0,0,0,1,0,0,0,34.9189288
131,4452,0.036378,3.563156,0,0,0,1,0,0,0,34.9189288
132,4498,0.036657,3.547597,0,0,0,1,0,0,0,34.7664506
133,4529,0.036936,3.532037,0,0,0,1,0,0,0,34.6139626
134,4561,0.037214,3.516477,0,0,0,1,0,0,0,34.4614746
135,4592,0.037493,3.516477,0,0,0,1,0,0,0,34.4614746
136,4639,0.037772,3.500918,0,0,0,1,0,0,0,34.3089964
137,4670,0.038051,3.500918,0,0,0,1,0,0,0,34.3089964
138,4702,0.038329,3.485358,0,0,0,1,0,0,0,34.1565084
139,4733,0.038608,3.485358,0,0,0,1,0,0,0,34.1565084
140,4764,0.038887,3.469799,0,0,0,1,0,0,0,34.0040302
141,4795,0.039166,3.469799,0,0,0,1,0,0,0,34.0040302
142,4827,0.039445,3.469799,0,0,0,1,0,0,0,34.0040302
143,4858,0.039724,3.469799,0,0,0,1,0,0,0,34.0040302
144,4905,0.040003,3.469799,0,0,0,1,0,0,0,34.0040302
145,4936,0.040281,3.454239,0,0,0,1,0,0,0,33.8515422
146,4967,0.040561,3.469799,0,0,0,1,0,0,0,34.0040302
147,4998,0.040839,3.454239,0,0,0,1,0,0,0,33.8515422
148,5029,0.041119,3.469799,0,0,0,1,0,0,0,34.0040302
149,5061,0.041397,3.454239,0,0,0,1,0,0,0,33.8515422
150,5092,0.041676,3.469799,0,0,0,1,0,0,0,34.0040302
151,5123,0.041955,3.469799,0,0,0,1,0,0,0,34.0040302
152,5155,0.042234,3.469799,0,0,0,1,0,0,0,34.0040302
153,5186,0.042513,3.485358,0,0,0,1,0,0,0,34.1565084
154,5217,0.042792,3.469799,0,0,0,1,0,0,0,34.0040302
155,5248,0.04307,3.469799,0,0,0,1,0,0,0,34.0040302
156,5311,0.043349,3.469799,0,0,0,1,0,0,0,34.0040302
157,5342,0.043628,3.485358,0,0,0,1,0,0,0,34.1565084
158,5373,0.043907,3.485358,0,0,0,1,0,0,0,34.1565084
159,5405,0.044186,3.500918,0,0,0,1,0,0,0,34.3089964
160,5436,0.044465,3.500918,0,0,0,1,0,0,0,34.3089964
161,5469,0.044744,3.500918,0,0,0,1,0,0,0,34.3089964
162,5500,0.045022,3.516477,0,0,0,1,0,0,0,34.4614746
163,5532,0.045301,3.500918,0,0,0,1,0,0,0,34.3089964
164,5563,0.04558,3.516477,0,0,0,1,0,0,0,34.4614746
165,5594,0.045859,3.516477,0,0,0,1,0,0,0,34.4614746
166,5626,0.046138,3.532037,0,0,0,1,0,0,0,34.6139626
167,5657,0.046418,3.547597,0,0,0,1,0,0,0,34.7664506
168,5688,0.046696,3.578716,0,0,0,1,0,0,0,35.0714168
169,5719,0.046975,3.594275,0,0,0,1,0,0,0,35.223895
170,5766,0.047253,3.625395,0,0,0,1,0,0,0,35.528871
171,5797,0.047532,3.640954,0,0,0,1,0,0,0,35.6813492
172,5829,0.047811,3.640954,0,0,0,1,0,0,0,35.6813492
173,5876,0.04809,3.656514,0,0,0,1,0,0,0,35.8338372
174,5907,0.048368,3.656514,0,0,0,1,0,0,0,35.8338372
175,5938,0.048647,3.640954,0,0,0,1,0,0,0,35.6813492
176,5971,0.048926,3.656514,0,0,0,1,0,0,0,35.8338372
177,5986,0.049205,3.687633,0,0,0,1,0,0,0,36.1388034
178,6033,0.049484,3.703193,0,0,0,1,0,0,0,36.2912914
179,6064,0.049763,3.718753,0,0,0,1,0,0,0,36.4437794
180,6096,0.050042,3.703193,0,0,0,1,0,0,0,36.2912914
181,6127,0.05032,3.687633,0,0,0,1,0,0,0,36.1388034
182,6159,0.0506,3.672074,0,0,0,1,0,0,0,35.9863252
183,6191,0.050878,3.687633,0,0,0,1,0,0,0,36.1388034
184,6222,0.051158,3.687633,0,0,0,1,0,0,0,36.1388034
185,6253,0.051436,3.703193,0,0,0,1,0,0,0,36.2912914
186,6284,0.051715,3.703193,0,0,0,1,0,0,0,36.2912914
187,6331,0.051994,3.703193,0,0,0,1,0,0,0,36.2912914
188,6362,0.052273,3.718753,0,0,0,1,0,0,0,36.4437794
189,6409,0.052551,3.734312,0,0,0,1,0,0,0,36.5962576
190,6441,0.05283,3.734312,0,0,0,1,0,0,0,36.5962576
191,6472,0.05311,3.718753,0,0,0,1,0,0,0,36.4437794
192,6503,0.053388,3.718753,0,0,0,1,0,0,0,36.4437794
193,6534,0.053668,3.703193,0,0,0,1,0,0,0,36.2912914
194,6566,0.053946,3.703193,0,0,0,1,0,0,0,36.2912914
195,6597,0.054225,3.703193,0,0,0,1,0,0,0,36.2912914
196,6628,0.054504,3.718753,0,0,0,1,0,0,0,36.4437794
197,6659,0.054783,3.703193,0,0,0,1,0,0,0,36.2912914
198,6691,0.055061,3.718753,0,0,0,1,0,0,0,36.4437794
199,6722,0.05534,3.734312,0,0,0,1,0,0,0,36.5962576
200,6753,0.055619,3.703193,0,0,0,1,0,0,0,36.2912914
201,6800,0.055898,3.703193,0,0,0,1,0,0,0,36.2912914
202,6831,0.056176,3.687633,0,0,0,1,0,0,0,36.1388034
203,6862,0.056456,3.687633,0,0,0,1,0,0,0,36.1388034
204,6894,0.056734,3.703193,0,0,0,1,0,0,0,36.2912914
205,6925,0.057014,3.734312,0,0,0,1,0,0,0,36.5962576
206,6956,0.057292,3.749872,0,0,0,1,0,0,0,36.7487456
207,7003,0.057571,3.734312,0,0,0,1,0,0,0,36.5962576
208,7034,0.05785,3.734312,0,0,0,1,0,0,0,36.5962576
209,7065,0.058129,3.718753,0,0,0,1,0,0,0,36.4437794
210,7097,0.058408,3.718753,0,0,0,1,0,0,0,36.4437794
211,7128,0.058686,3.749872,0,0,0,1,0,0,0,36.7487456
212,7159,0.058966,3.749872,0,0,0,1,0,0,0,36.7487456
213,7208,0.059244,3.749872,0,0,0,1,0,0,0,36.7487456
214,7239,0.059524,3.734312,0,0,0,1,0,0,0,36.5962576
215,7270,0.059802,3.734312,0,0,0,1,0,0,0,36.5962576
216,7301,0.060082,3.718753,0,0,0,1,0,0,0,36.4437794
217,7332,0.06036,3.687633,0,0,0,1,0,0,0,36.1388034
218,7363,0.060639,3.687633,0,0,0,1,0,0,0,36.1388034
219,7395,0.060917,3.672074,0,0,0,1,0,0,0,35.9863252
220,7426,0.061196,3.672074,0,0,0,1,0,0,0,35.9863252
221,7457,0.061474,3.687633,0,0,0,1,0,0,0,36.1388034
222,7489,0.061754,3.687633,0,0,0,1,0,0,0,36.1388034
223,7521,0.062033,3.672074,0,0,0,1,0,0,0,35.9863252
224,7553,0.062311,3.672074,0,0,0,1,0,0,0,35.9863252
225,7599,0.062591,3.687633,0,0,0,1,0,0,0,36.1388034
226,7631,0.062869,3.687633,0,0,0,1,0,0,0,36.1388034
227,7662,0.063148,3.703193,0,0,0,1,0,0,0,36.2912914
228,7693,0.063427,3.718753,0,0,0,1,0,0,0,36.4437794
229,7724,0.063706,3.718753,0,0,0,1,0,0,0,36.4437794
230,7756,0.063985,3.718753,0,0,0,1,0,0,0,36.4437794
231,7802,0.064264,3.734312,0,0,0,1,0,0,0,36.5962576
232,7834,0.064542,3.765432,0,0,0,1,0,0,0,36.9012336
233,7865,0.064821,3.81211,0,0,0,1,0,0,0,37.358678
234,7896,0.0651,3.82767,0,0,0,1,0,0,0,37.511166
235,7927,0.065379,3.82767,0,0,0,1,0,0,0,37.511166
236,7959,0.065657,3.81211,0,0,0,1,0,0,0,37.358678
237,8006,0.065937,3.82767,0,0,0,1,0,0,0,37.511166
238,8037,0.066215,3.81211,0,0,0,1,0,0,0,37.358678
239,8068,0.066495,3.81211,0,0,0,1,0,0,0,37.358678
240,8099,0.066774,3.82767,0,0,0,1,0,0,0,37.511166
241,8130,0.067052,3.84323,0,0,0,1,0,0,0,37.663654
242,8162,0.067331,3.858789,0,0,0,1,0,0,0,37.8161322
243,8193,0.06761,3.858789,0,0,0,1,0,0,0,37.8161322
244,8224,0.067889,3.858789,0,0,0,1,0,0,0,37.8161322
245,8271,0.068168,3.84323,0,0,0,1,0,0,0,37.663654
246,8302,0.068447,3.82767,0,0,0,1,0,0,0,37.511166
247,8334,0.068725,3.81211,0,0,0,1,0,0,0,37.358678
248,8365,0.069004,3.796551,0,0,0,1,0,0,0,37.2061998
249,8396,0.069283,3.796551,0,0,0,1,0,0,0,37.2061998
250,8427,0.069562,3.780991,0,0,0,1,0,0,0,37.0537118
251,8458,0.069841,3.780991,0,0,0,1,0,0,0,37.0537118
252,8505,0.07012,3.780991,0,0,0,1,0,0,0,37.0537118
253,8537,0.070398,3.780991,0,0,0,1,0,0,0,37.0537118
254,8568,0.070677,3.780991,0,0,0,1,0,0,0,37.0537118
255,8599,0.070957,3.780991,0,0,0,1,0,0,0,37.0537118
256,8630,0.071235,3.780991,0,0,0,1,0,0,0,37.0537118
257,8661,0.071514,3.780991,0,0,0,1,0,0,0,37.0537118
258,8693,0.071793,3.780991,0,0,0,1,0,0,0,37.0537118
259,8724,0.072072,3.796551,0,0,0,1,0,0,0,37.2061998
260,8755,0.07235,3.796551,0,0,0,1,0,0,0,37.2061998
261,8787,0.07263,3.81211,0,0,0,1,0,0,0,37.358678
262,8818,0.072908,3.82767,0,0,0,1,0,0,0,37.511166
263,8849,0.073188,3.84323,0,0,0,1,0,0,0,37.663654
264,8911,0.073466,3.84323,0,0,0,1,0,0,0,37.663654
265,8943,0.073745,3.84323,0,0,0,1,0,0,0,37.663654
266,8974,0.074024,3.82767,0,0,0,1,0,0,0,37.511166
267,9005,0.074303,3.81211,0,0,0,1,0,0,0,37.358678
268,9037,0.074582,3.81211,0,0,0,1,0,0,0,37.358678
269,9068,0.074861,3.796551,0,0,0,1,0,0,0,37.2061998
270,9099,0.075139,3.780991,0,0,0,1,0,0,0,37.0537118
271,9130,0.075418,3.780991,0,0,0,1,0,0,0,37.0537118
272,9161,0.075697,3.780991,0,0,0,1,0,0,0,37.0537118
273,9193,0.075976,3.749872,0,0,0,1,0,0,0,36.7487456
274,9224,0.076255,3.734312,0,0,0,1,0,0,0,36.5962576
275,9255,0.076534,3.718753,0,0,0,1,0,0,0,36.4437794
276,9302,0.076813,3.718753,0,0,0,1,0,0,0,36.4437794
277,9333,0.077091,3.718753,0,0,0,1,0,0,0,36.4437794
278,9365,0.077371,3.718753,0,0,0,1,0,0,0,36.4437794
279,9396,0.077649,3.718753,0,0,0,1,0,0,0,36.4437794
280,9427,0.077928,3.718753,0,0,0,1,0,0,0,36.4437794
281,9458,0.078206,3.718753,0,0,0,1,0,0,0,36.4437794
282,9505,0.078485,3.718753,0,0,0,1,0,0,0,36.4437794
283,9539,0.078764,3.703193,0,0,0,1,0,0,0,36.2912914
284,9570,0.079043,3.687633,0,0,0,1,0,0,0,36.1388034
285,9601,0.079322,0.40455,0,0,0,1,0,0,0,3.96459
286,9633,0.079601,0.031119,0,0,0,1,0,0,0,0.3049662
287,9664,0.07988,0.031119,0,0,0,1,0,0,0,0.3049662
288,9695,0.080159,0.01556,0,0,0,1,0,0,0,0.152488
289,9726,0.080438,0.01556,0,0,0,1,0,0,0,0.152488
